# wavelength (nm) 
608.872 
608.883 
608.921 
609.169 
609.325 
609.411 
609.608 
609.769 
609.900 
610.007 
610.094 
610.165 
610.223 
610.271 
610.309 
610.341 
610.367 
610.389 
610.407 
610.422 
610.434 
610.444 
610.453 
610.460 
610.466 
610.472 
610.476 
610.480 
610.484 
610.487 
610.490 
610.492 
610.495 
610.497 
610.499 
610.501 
610.503 
610.505 
610.506 
610.508 
610.510 
610.511 
610.513 
610.514 
610.516 
610.517 
610.519 
610.521 
610.522 
610.524 
610.525 
610.526 
610.528 
610.529 
610.531 
610.532 
610.534 
610.535 
610.537 
610.538 
610.540 
610.541 
610.543 
610.544 
610.546 
610.548 
610.549 
610.551 
610.553 
610.554 
610.556 
610.558 
610.560 
610.562 
610.564 
610.567 
610.569 
610.572 
610.575 
610.579 
610.583 
610.587 
610.593 
610.599 
610.606 
610.615 
610.625 
610.637 
610.652 
610.668 
610.670 
610.692 
610.718 
610.750 
610.789 
610.837 
610.895 
610.967 
611.054 
611.161 
611.293 
611.455 
611.593 
611.653 
611.765 
611.896 
611.925 
612.008 
612.196 
669.145 
669.162 
669.471 
669.591 
669.679 
669.736 
669.949 
669.953 
670.008 
670.030 
670.045 
670.059 
670.072 
670.087 
670.109 
670.129 
670.168 
670.273 
670.391 
670.439 
670.487 
670.565 
670.629 
670.681 
670.724 
670.759 
670.788 
670.812 
670.832 
670.848 
670.861 
670.873 
670.882 
670.890 
670.897 
670.903 
670.908 
670.912 
670.916 
670.920 
670.923 
670.926 
670.928 
670.931 
670.933 
670.935 
670.937 
670.939 
670.941 
670.943 
670.945 
670.946 
670.948 
670.950 
670.952 
670.953 
670.955 
670.957 
670.958 
670.960 
670.962 
670.963 
670.965 
670.966 
670.967 
670.969 
670.970 
670.972 
670.974 
670.975 
670.977 
670.979 
670.980 
670.982 
670.984 
670.985 
670.987 
670.989 
670.991 
670.993 
670.995 
670.997 
670.999 
671.001 
671.004 
671.006 
671.009 
671.012 
671.016 
671.019 
671.024 
671.029 
671.035 
671.042 
671.050 
671.059 
671.071 
671.084 
671.100 
671.120 
671.144 
671.173 
671.208 
671.251 
671.303 
671.367 
671.446 
671.542 
671.660 
671.805 
671.982 
672.200 
672.467 
672.797 
810.654 
811.050 
811.371 
811.393 
811.633 
811.847 
812.022 
812.164 
812.280 
812.375 
812.452 
812.516 
812.567 
812.609 
812.644 
812.673 
812.697 
812.717 
812.733 
812.747 
812.758 
812.768 
812.776 
812.783 
812.789 
812.795 
812.800 
812.804 
812.808 
812.811 
812.814 
812.817 
812.820 
812.822 
812.825 
812.827 
812.830 
812.832 
812.834 
812.836 
812.838 
812.840 
812.842 
812.844 
812.846 
812.848 
812.850 
812.852 
812.854 
812.856 
812.858 
812.860 
812.862 
812.864 
812.866 
812.868 
812.870 
812.872 
812.874 
812.876 
812.878 
812.880 
812.882 
812.884 
812.887 
812.889 
812.891 
812.893 
812.896 
812.898 
812.901 
812.904 
812.906 
812.910 
812.913 
812.917 
812.921 
812.926 
812.931 
812.937 
812.944 
812.953 
812.962 
812.974 
812.988 
813.004 
813.024 
813.048 
813.076 
813.112 
813.154 
813.206 
813.270 
813.276 
813.347 
813.385 
813.442 
813.559 
813.702 
813.877 
814.091 
814.355 
814.680 
815.079 
